-0.004349423,-0.010554319,-0.012561912,-0.012561912,-0.012561912,0.001845492,0.021902259,0.041800606,0.055697452,0.061840129,0.06836357,0.079778422,0.101381008,0.130141747,0.157113648,0.157113648,0.157113648,0.142901706,0.140247657,0.140247657,0.140247657,0.177190129,0.190054967,0.190054967,0.190054967,0.146345907,0.146345907,0.146345907,0.1600184,0.223104664,0.223104664,0.223104664,0.200930244,0.122683265,0.122683265,0.122683265,0.186594885,0.290422959,0.290422959,0.290422959,0.181848055,0.074756585,0.074756585,0.074756585,0.253375117,0.359622683,0.359622683,0.359622683,0.092410537,0.058366585,0.058366585,0.058366585,0.549138387,0.549138387,0.549138387,0.087610991,-1.934425247,-5.139289544,-9.36285756,-14.31404603,-19.68126827,-25.20290651,-30.6739253,-35.90264071,-40.66282937,-44.69059297,-47.74398009,-49.699381,-50.63271911,-50.65828801,-50.70119723,-50.82846864,-50.96433319,-51.6717327,-52.64391962,-53.65874051,-54.52901482,-55.18536378,-55.68417924,-56.1490784,-56.68722617,-57.32786978,-58.01599938,-58.65357091,-59.16281963,-59.52725429,-59.7960202,-60.05109126,-60.36174313,-60.75518464,-61.21674184,-61.7138147,-62.22532252,-62.75724004,-63.33574956,-63.98683157,-64.71579681,-65.50196696,-66.30850319,-67.10242098,-67.86794705,-68.60923626,-69.34006641,-70.06914824,-70.79384872,-71.50118328,-72.1770119,-72.81298004,-73.40827538,-73.96208671,-74.46654836,-74.90313646,-75.24920614,-75.49054506,-75.63156749,-75.68090982,-75.68090982,-75.68090982,-75.65206795,-75.60788863,-75.53996053,-75.4474517,-75.34296927,-75.24876378,-75.18242345,-75.15200296,-75.13910003,-75.11310339,-75.04473474,-74.92068137,-74.74843184,-74.55128894,-74.35542337,-74.17608193,-74.01237059,-73.85001337,-73.67488495,-73.47968172,-73.26999964,-73.05944562,-72.86166482,-72.68422576,-72.52574077,-72.38297605,-72.25536855,-72.15016831,-72.08296883,-72.08296883,-72.08296883,-72.15566713,-72.26424186,-72.3983444,-72.55543901,-72.73844227,-72.95125853,-73.19360065,-73.4540146,-73.7156588,-73.96224569,-74.18556997,-74.38763966,-74.57726285,-74.75965944,-74.92844734,-75.06485375,-75.06485375,-75.06485375,-75.01863496,-74.80254496,-74.48515406,-74.06733204,-73.54225935,-72.89649116,-72.12030318,-71.21944917,-70.22220481,-69.17639453,-68.13665717,-67.14600333,-66.22300746,-65.35758293,-64.51981727,-63.67621284,-62.80490893,-61.90704421,-61.00940482,-60.15835994,-59.41328967,-58.83762934,-58.70959783,-58.70959783,-58.70959783,-59.33987047,-60.3318625,-61.66080673,-63.26901606,-65.06911937,-66.95259987,-68.80609058,-70.53044038,-72.06131131,-73.38044761,-74.5136799,-75.51814303,-76.46051408,-77.39332965,-78.34085825,-79.29726403,-80.23886612,-81.1403743,-81.98743685,-82.7788202,-83.51556647,-84.19103752,-84.78455429,-85.27046848,-85.63318237,-85.88273297,-86.05884777,-86.21644456,-86.3999759,-86.62202816,-86.8598047,-87.07031865,-87.22046182,-87.31242988,-87.39143623,-87.52693252,-87.7792459,-88.17243505,-88.68651081,-89.26651743,-89.83435184,-89.99260758,-89.99260758,-89.99260758,-88.4686642,-85.2190869,-79.52571134,-70.77195593,-58.64971021,-43.33380723,-25.56400136,-6.595290347,11.96477847,28.39320141,41.10059771,47.03470877,47.03470877,47.03470877,37.73599028,23.95824939,7.12010255,-11.09292705,-28.95783912,-44.96607554,-58.04059656,-67.66958833,-73.91351681,-77.29534292,-78.30644424,-78.30644424,-78.30644424,-78.11939874,-78.11939874,-78.11939874,-78.69264008,-79.44081597,-80.22884867,-80.94483171,-81.51313488,-81.90156798,-82.1143717,-82.1143717,-82.1143717,-82.0378746,-81.88192004,-81.68650167,-81.45615151,-81.19772047,-80.92512346,-80.6519415,-80.38539735,-80.11676321,-79.82427133,-79.48159887,-79.0698868,-78.58597092,-78.04344075,-77.46340481,-76.86602971,-76.26280977,-75.65693619,-75.05052602,-74.44757847,-73.85687043,-73.28539739,-72.73127847,-72.18045601,-71.60935427,-70.99371473,-70.32023553,-69.59174246,-68.82224965,-68.03103675,-67.22916981,-66.41638013,-65.58249872,-64.71388521,-63.80401852,-62.85423194,-61.87231599,-60.86372786,-59.82941558,-58.7639636,-57.66206807,-56.52411013,-55.36005294,-54.1876924,-53.02290756,-51.87630731,-50.749784,-49.63988308,-48.54469039,-47.46981513,-46.42850491,-45.43750228,-44.51209933,-43.66192215,-42.89157903,-42.20465726,-41.60756286,-41.11326143,-40.73591725,-40.48504766,-40.45167494,-40.45167494,-40.45167494,-40.63721765,-40.90664987,-41.26246682,-41.70963771,-42.24741373,-42.86520868,-43.54238715,-44.25293778,-44.97495829,-45.69510413,-46.41065639,-47.12478802,-47.84178721,-48.56428935,-49.29468487,-50.03832302,-50.80668214,-51.61621744,-52.48385832,-53.41856708,-54.41438355,-55.45239059,-56.50460405,-57.5448344,-58.55617517,-59.53476277,-60.48609818,-61.42123205,-62.34704434,-63.26586366,-64.17660216,-65.07602051,-65.96259931,-66.83540382,-67.69210403,-68.52542547,-69.32314362,-70.06809108,-70.74433355,-71.34035566,-71.85283671,-72.28435649,-72.64283014,-72.93807444,-73.17877788,-73.37346402,-73.52912672,-73.65258244,-73.74951327,-73.82373704,-73.87710703,-73.91241959,-73.93425449,-73.95039265,-73.96858712,-73.99354726,-74.02150014,-74.02150014,-74.02150014,-73.96091702,-73.8348271,-73.65285555,-73.43491309,-73.20865873,-73.00019711,-72.82395854,-72.6825579,-72.57007394,-72.48112317,-72.41746801,-72.41746801,-72.41746801,-72.45831233,-72.54601224,-72.63753771,-72.68671161,-72.68671161,-72.68671161,-72.62638174,-72.56934719,-72.56934719,-72.56934719,-72.62989573,-72.71252355,-72.79695568,-72.88112378,-72.98328403,-73.13834145,-73.38035394,-73.72628079,-74.16332515,-74.65155178,-75.13548205,-75.56197024,-75.89589353,-76.12414742,-76.22669112,-76.22669112,-76.22669112,-76.06012504,-75.76299351,-75.31457337,-74.7102867,-73.96903,-73.13089782,-72.24333167,-71.34883872,-70.47020315,-69.60979382,-68.75389755,-67.8859878,-66.99747637,-66.09252616,-65.18345703,-64.27843681,-63.37500394,-62.45285083,-61.48568651,-60.45770188,-59.38469902,-58.32658251,-57.38500593,-56.68322035,-56.68322035,-56.68322035,-56.95108034,-57.90241644,-59.19879702,-60.75095738,-62.47061414,-64.2802031,-66.11145017,-67.90179572,-69.59461193,-71.14315646,-72.52198708,-73.73204094,-74.80149995,-75.77419918,-76.69378755,-77.58748235,-78.46026246,-79.29771781,-80.07644122,-80.77556472,-81.38127799,-81.88906269,-82.30166942,-82.62839013,-82.88533904,-83.09717545,-83.29233841,-83.49371204,-83.70759521,-83.91750326,-84.09081029,-84.19760915,-84.2109602,-84.21548593,-84.23019455,-84.28027286,-84.46910364,-84.78900135,-85.21997788,-85.72849593,-86.27558406,-86.79825306,-86.79825306,-86.79825306,-86.04024766,-83.40430942,-78.40063927,-70.36508876,-58.94178951,-44.26084428,-27.01934068,-8.435842005,9.910874772,26.31135634,39.17092533,46.23272579,46.23272579,46.23272579,37.31521457,23.81155795,7.103738942,-11.12383907,-29.11268366,-45.29138794,-58.50949065,-68.19079978,-74.35941177,-77.53656946,-77.53656946,-77.53656946,-77.52018281,-76.80686619,-76.80686619,-76.80686619,-76.83728486,-77.45752471,-78.19906845,-78.96283355,-79.6721432,-80.27142342,-80.72564581,-81.02434006,-81.18311113,-81.24003486,-81.24303881,-81.24513195,-81.25919148,-81.28604876,-81.28604876,-81.28604876,-81.17178808,-80.95173267,-80.63013271,-80.22986545,-79.78084811,-79.30823297,-78.82145554,-78.31524203,-77.779538,-77.20921503,-76.61447724,-76.01686158,-75.43983836,-74.89404275,-74.36899039,-73.83184123,-73.24297194,-72.57211134,-71.81335778,-70.9893295,-70.13926898,-69.30411345,-68.51033763,-67.76252588,-67.04716869,-66.34221215,-65.62621068,-64.88669675,-64.11624817,-63.30843547,-62.45441158,-61.54368136,-60.56916764,-59.53127123,-58.44074738,-57.31495737,-56.17220885,-55.02571733,-53.8828736,-52.74791212,-51.62780176,-50.53399871,-49.48112913,-48.48465191,-47.55552982,-46.70244238,-45.93379177,-45.26182059,-44.702759,-44.27310648,-43.98073755,-43.81961804,-43.81961804,-43.81961804,-43.87790557,-43.99058151,-44.13282054,-44.31426816,-44.54976194,-44.85016562,-45.22073043,-45.6583342,-46.15563178,-46.7030565,-47.28755893,-47.89138142,-48.49244033,-49.06541984,-49.59243616,-50.06904388,-50.50769799,-50.93663027,-51.38761728,-51.88743699,-52.44940924,-53.07582483,-53.76410754,-54.51643052,-55.33911236,-56.24146366,-57.22473864,-58.27525266,-59.36500348,-60.45908279,-61.53135178,-62.57253265,-63.59179862,-64.60607029,-65.62555056,-66.64117937,-67.62432606,-68.53538324,-69.34175541,-70.02996976,-70.60753595,-71.09507776,-71.51143817,-71.86332552,-72.14412087,-72.34348662,-72.46148358,-72.51717232,-72.54566555,-72.58491779,-72.6566171,-72.75514252,-72.84553175,-72.84553175,-72.84553175,-72.71038322,-72.50967537,-72.29201827,-72.10740645,-71.98672931,-71.93203954,-71.91943788,-71.91467394,-71.88980733,-71.83580581,-71.7613818,-71.68404691,-71.6165334,-71.5582473,-71.49562932,-71.41307472,-71.3041599,-71.18086901,-71.0705208,-71.03773995,-71.03773995,-71.03773995,-71.09931669,-71.09931669,-71.09931669,-71.04608181,-70.94293239,-70.94293239,-70.94293239,-70.96482199,-71.17187406,-71.44535957,-71.73619803,-72.00198192,-72.22493336,-72.41290661,-72.58715987,-72.76307075,-72.93575818,-73.07803484,-73.07803484,-73.07803484,-72.99119336,-72.76483743,-72.47773466,-72.15753693,-71.81271835,-71.42828597,-70.97416253,-70.42149297,-69.76013485,-69.00343414,-68.18439649,-67.34086747,-66.49869009,-65.66418714,-64.82515753,-63.95963891,-63.0486179,-62.08523775,-61.07743438,-60.04711533,-59.02479821,-58.04817722,-57.16418913,-56.42956167,-55.90743894,-55.90743894,-55.90743894,-56.21173763,-57.04399063,-58.22343632,-59.69008156,-61.36082416,-63.13514705,-64.9103123,-66.59655022,-68.12903959,-69.48017616,-70.65728324,-71.6930299,-72.62921454,-73.50310495,-74.33572336,-75.13589827,-75.90930518,-76.66660908,-77.42608462,-78.20250049,-78.99531553,-79.77745272,-80.49976639,-81.11001009,-81.57700631,-81.90761039,-82.14225463,-82.33413002,-82.51893796,-82.69661781,-82.83488868,-82.83488868,-82.83488868,-82.87319452,-82.87319452,-82.87477075,-83.14816406,-83.59122891,-84.14501066,-84.7297278,-85.26942695,-85.52512663,-85.52512663,-85.52512663,-84.23064815,-81.33352133,-76.089429,-67.83474552,-56.19513241,-41.2634219,-23.68349447,-4.613602742,14.41637728,31.71161999,45.6360191,54.81495969,54.81495969,54.81495969,47.16128411,33.58197416,16.31314502,-2.895532631,-22.17230693,-39.80723486,-54.51062333,-65.5735725,-72.90073834,-76.91211629,-77.04370145,-77.04370145,-77.04370145,-75.75852839,-74.71664619,-74.49821783,-74.49821783,-74.49821783,-75.18312922,-75.97416437,-76.71260673,-77.29956062,-77.70780437,-77.97256149,-78.15759255,-78.31995406,-78.4822553,-78.62903509,-78.62903509,-78.62903509,-78.61512906,-78.41580483,-78.15467255,-77.86090788,-77.54703968,-77.20483246,-76.81323773,-76.35395579,-75.82313003,-75.23606367,-74.62075285,-74.00504588,-73.40699875,-72.82973258,-72.26282883,-71.68944235,-71.09491319,-70.4705294,-69.81562674,-69.13256703,-68.42333271,-67.68728701,-66.91900436,-66.11168363,-65.26422683,-64.38281996,-63.48292883,-62.58405186,-61.7000399,-60.83373005,-59.97431717,-59.09946733,-58.1878349,-57.23007457,-56.23436192,-55.22627015,-54.23622017,-53.28499871,-52.37538617,-51.48831221,-50.59266703,-49.6610232,-48.68462912,-47.6744987,-46.65846042,-45.66584574,-44.71728405,-43.82127132,-42.97809723,-42.19282966,-41.48021215,-40.86768126,-40.3831764,-40.04711361,-39.85966022,-39.85966022,-39.85966022,-39.95194022,-40.11567285,-40.33282286,-40.61459506,-40.9727396,-41.41134897,-41.92058942,-42.48111329,-43.07254576,-43.67845439,-44.29379833,-44.92113949,-45.56689956,-46.23719094,-46.93225623,-47.64413844,-48.36137123,-49.06907223,-49.75434609,-50.41126925,-51.04440463,-51.66948188,-52.31388508,-53.00687629,-53.77332579,-54.62586213,-55.55857127,-56.55023261,-57.57197572,-58.59565959,-59.60163934,-60.58095943,-61.52856766,-62.44225384,-63.31597063,-64.14212858,-64.91704029,-65.64663616,-66.3450898,-67.03117039,-67.71520415,-68.39123441,-69.03428289,-69.60668341,-70.07193356,-70.40905731,-70.62046568,-70.72929744,-70.73384571,-70.73384571,-70.73384571,-70.67098574,-70.56735172,-70.41555233,-70.22083373,-70.00145778,-69.78091782,-69.58069976,-69.41134298,-69.2731199,-69.15986311,-69.06687024,-68.99536036,-68.94989479,-68.94211063,-68.9366249,-68.93282112,-68.92033525,-68.84358058,-68.69531814,-68.47894419,-68.21776767,-67.94690057,-67.70515307,-67.52129607,-67.41077755,-67.41077755,-67.41077755,-67.51036937,-67.67249049,-67.89934085,-68.19320911,-68.5500128,-68.95375896,-69.37827369,-69.78868068,-70.15147973,-70.44107738,-70.64453892,-70.7631412,-70.7631412,-70.7631412,-70.6633376,-70.46864802,-70.17203143,-69.76652698,-69.25874159,-68.67367451,-68.04599289,-67.40811266,-66.77587562,-66.14396801,-65.48808204,-64.7803772,-64.00591987,-63.1711731,-62.30418559,-61.43761946,-60.59370468,-59.76943037,-58.94058935,-58.07740402,-57.16977785,-56.24871898,-55.38956269,-54.6961837,-54.46292943,-54.46292943,-54.46292943,-55.08603109,-56.00929454,-57.18245713,-58.56322566,-60.11232542,-61.78301393,-63.51115198,-65.21599511,-66.81968586,-68.26848312,-69.55037442,-70.69546885,-71.75818363,-72.78788527,-73.80728151,-74.80552776,-75.75051198,-76.61225263,-77.37666812,-78.05071626,-78.65052945,-79.18517167,-79.65027813,-80.03502061,-80.33639353,-80.57220021,-80.77774372,-80.98906695,-81.22113225,-81.45563376,-81.64995208,-81.76748435,-81.80742123,-81.81823868,-81.88614082,-82.09566952,-82.49403295,-83.0694613,-83.75962477,-84.47418322,-85.10749288,-85.10749288,-85.10749288,-84.58881561,-82.2866556,-77.86114685,-70.60687599,-60.02105938,-46.00318981,-28.98887336,-9.96830299,9.619399993,28.08051072,43.70388117,54.98417233,54.98417233,54.98417233,54.28189371,42.5453057,26.53768009,7.864632235,-11.64675799,-30.21406377,-46.36532561,-59.14044506,-68.18368302,-73.70546796,-76.3320997,-76.3320997,-76.3320997,-75.30747141,-74.3764291,-74.17988561,-74.17988561,-74.17988561,-74.85790135,-75.6441302,-76.37504122,-76.94185505,-77.30584394,-77.49008776,-77.54616208,-77.54616208,-77.54616208,-77.5303758,-77.50403192,-77.45573566,-77.38197747,-77.28507386,-77.16598126,-77.01492513,-76.80827295,-76.51850494,-76.12813859,-75.64188148,-75.08661433,-74.50093338,-73.91881779,-73.3586257,-72.82125499,-72.29693039,-71.77757035,-71.26181028,-70.75285838,-70.24952922,-69.73773666,-69.19153772,-68.58111765,-67.88835377,-67.11492123,-66.28191985,-65.41954289,-64.55155564,-63.68494184,-62.80949477,-61.9087044,-60.97308172,-60.00992679,-59.0400022,-58.08764891,-57.16580766,-56.26827644,-55.37285469,-54.45241006,-53.48748609,-52.47481623,-51.42539016,-50.35437291,-49.27128341,-48.17479222,-47.05849116,-45.9197165,-44.76935205,-43.63660542,-42.5644053,-41.59663406,-40.76592078,-40.08512267,-39.54802792,-39.13761263,-38.83766717,-38.64175993,-38.64175993,-38.64175993,-38.75026683,-39.03634561,-39.42911733,-39.90088847,-40.42243267,-40.97145479,-41.53773429,-42.12149825,-42.72726867,-43.35660601,-44.0026415,-44.65156638,-45.28560423,-45.89248885,-46.47108211,-47.03380591,-47.60345072,-48.20507003,-48.85954949,-49.57484787,-50.34739147,-51.16172469,-52.00045755,-52.84910512,-53.70141925,-54.55883831,-55.42786976,-56.31656848,-57.22752035,-58.15957435,-59.10692339,-60.06370368,-61.02683203,-61.99721133,-62.97710568,-63.96731169,-64.96259425,-65.94790524,-66.90185149,-67.8003396,-68.62189638,-69.35249135,-69.98648219,-70.52380122,-70.96668351,-71.31645653,-71.57211867,-71.73404418,-71.73404418,-71.73404418,-71.72789265,-71.61181371,-71.46497999,-71.29471732,-71.09865564,-70.86963546,-70.5990608,-70.28389134,-69.92914042,-69.54941209,-69.166209,-68.80374752,-68.48673176,-68.23547062,-68.06487942,-68.03093805,-68.03093805,-68.03093805,-68.12381273,-68.22188415,-68.2960301,-68.2960301,-68.2960301,-68.22627865,-68.11142785,-67.97335489,-67.82911117,-67.69443138,-67.58304821,-67.50672132,-67.50672132,-67.50672132,-67.55492035,-67.66158391,-67.79949153,-67.95673495,-68.12332719,-68.29360942,-68.46636418,-68.6439378,-68.82834925,-69.01999774,-69.21557499,-69.40597891,-69.57574687,-69.70231471,-69.70231471,-69.70231471,-69.54692698,-69.24028223,-68.79779133,-68.23650758,-67.58327985,-66.8666832,-66.10777767,-65.317035,-64.49390662,-63.63529988,-62.73920874,-61.80941643,-60.85411489,-59.88195791,-58.90084837,-57.92046753,-56.96260588,-56.07041083,-55.31226299,-54.77491954,-54.77491954,-54.77491954,-55.21539396,-56.11313377,-57.31638423,-58.74564215,-60.32113747,-61.97479851,-63.65179157,-65.3042125,-66.8894338,-68.3693848,-69.71998513,-70.9383789,-72.04471144,-73.07637164,-74.07486125,-75.0676919,-76.06153076,-77.04053165,-77.97565682,-78.83491419,-79.59160285,-80.22732121,-80.7321093,-81.10686145,-81.36421084,-81.53409816,-81.65730931,-81.77786362,-81.92600593,-82.10583088,-82.29525597,-82.45896975,-82.57254571,-82.64079537,-82.7015137,-82.80833301,-83.00665793,-83.31056762,-83.70201776,-84.14802318,-84.61811615,-85.08367108,-85.11543216,-85.11543216,-85.11543216,-83.41417747,-79.76180261,-73.40410234,-63.77881303,-50.72103909,-34.59792829,-16.32990808,2.708547451,20.87894857,36.50771302,48.10369893,49.90929584,49.90929584,49.90929584,39.29537179,24.40076709,6.749971427,-11.88782903,-29.75678354,-45.38824148,-57.81476791,-66.67435714,-72.1751656,-74.94460573,-74.96678872,-74.96678872,-74.96678872,-74.36360124,-74.29620213,-74.29620213,-74.29620213,-74.81776448,-75.47322767,-76.16276259,-76.79814838,-77.31767759,-77.69873602,-77.9576075,-78.13728001,-78.2830912,-78.42109099,-78.5452185,-78.5452185,-78.5452185,-78.48425314,-78.24006253,-77.90724094,-77.53098496,-77.15405676,-76.80173758,-76.47439385,-76.15260198,-75.80869193,-75.41907064,-74.97406875,-74.477415,-73.94419271,-73.39023795,-72.82705034,-72.2584109,-71.68034634,-71.08523758,-70.46600195,-69.81852388,-69.14186941,-68.43647715,-67.70210436,-66.93750828,-66.14295554,-65.31953034,-64.47245563,-63.60925467,-62.73577746,-61.85520906,-60.96480933,-60.05832975,-59.12728981,-58.16778035,-57.18034582,-56.17137723,-55.14770768,-54.11413582,-53.07276133,-52.02292061,-50.96665478,-49.9111831,-48.86888131,-47.85213403,-46.86589451,-45.90629836,-44.96350367,-44.03084871,-43.11500889,-42.24230253,-41.45538594,-40.80085442,-40.31666215,-40.01864721,-40.01864721,-40.01864721,-40.11677231,-40.40283681,-40.78899331,-41.26691937,-41.82514605,-42.44655748,-43.10790288,-43.78887524,-44.47653674,-45.16911696,-45.87040523,-46.58106148,-47.29220113,-47.98523549,-48.63954905,-49.24256695,-49.79864682,-50.32851059,-50.86187116,-51.42633396,-52.04031551,-52.71243132,-53.44908345,-54.26016197,-55.16203198,-56.16941722,-57.28421489,-58.48559319,-59.73241022,-60.97348201,-62.16477632,-63.28519659,-64.33565935,-65.33153461,-66.2847104,-67.19209111,-68.03509437,-68.79253348,-69.45442246,-70.03349992,-70.56047932,-71.06749293,-71.56977129,-72.05447633,-72.48433258,-72.81727839,-73.02697596,-73.04572475,-73.04572475,-73.04572475,-72.95381585,-72.84176004,-72.70234569,-72.52735005,-72.32233688,-72.11245482,-71.93436759,-71.81888554,-71.80916419,-71.80916419,-71.78431405,-71.78431405,-71.76962638,-71.68155416,-71.56132573,-71.42380203,-71.27424089,-71.10811573,-70.91935004,-70.7129513,-70.51068143,-70.34427968,-70.24208415,-70.24208415,-70.24208415,-70.25548852,-70.25548852,-70.25548852,-70.17960895,-70.08415784,-70.00008556,-69.97874672,-69.97874672,-69.97874672,-70.04704797,-70.15335969,-70.30874535,-70.5236626,-70.79567762,-71.1043102,-71.41403012,-71.68605848,-71.89283969,-72.02451955,-72.02451955,-72.02451955,-71.94754768,-71.70635704,-71.30043385,-70.70759942,-69.93842175,-69.03882483,-68.07558731,-67.11400671,-66.19654638,-65.33369386,-64.51351711,-63.71404917,-62.9210717,-62.13008035,-61.33932173,-60.53952517,-59.71059516,-58.83113929,-57.90018657,-56.95667101,-56.08679104,-55.40875589,-55.40875589,-55.40875589,-55.51729432,-56.36377803,-57.54586378,-58.99219807,-60.63520786,-62.41188323,-64.25152706,-66.06799204,-67.76530612,-69.25997266,-70.50921967,-71.52824543,-72.38322952,-73.16327399,-73.9436168,-74.7572077,-75.59190787,-76.41075066,-77.18096773,-77.89432919,-78.56435156,-79.20685194,-79.81603436,-80.35833822,-80.78652564,-81.07420972,-81.23906607,-81.34564063,-81.47749061,-81.69255836,-81.99063872,-82.31206275,-82.57050942,-82.69762466,-82.70584631,-82.72381752,-82.73637588,-82.93177043,-83.31991058,-83.87701176,-84.54293483,-85.24804835,-85.91032337,-85.91032337,-85.91032337,-85.40490163,-82.7645994,-77.67562739,-69.45803137,-57.76179931,-42.74550207,-25.1455035,-6.213131434,12.46341983,29.1899079,42.39862592,50.75284903,50.75284903,50.75284903,42.2839019,29.18512433,12.81923889,-5.135824223,-22.92897592,-39.00333494,-52.23346494,-62.0656623,-68.52338302,-72.09290401,-73.15828415,-73.15828415,-73.15828415,-72.593936,-72.593936,-72.593936,-72.74609162,-73.46856376,-74.35438205,-75.26232295,-76.0715744,-76.7075461,-77.15211642,-77.43383029,-77.60484606,-77.7103276,-77.72159117,-77.72159117,-77.72159117,-77.588786,-77.39624764,-77.17652915,-76.96388078,-76.77526785,-76.59945212,-76.40401699,-76.14943867,-75.80968504,-75.38090217,-74.87901,-74.32890195,-73.75040945,-73.15306923,-72.53943827,-71.91095074,-71.27295156,-70.63644829,-70.00860922,-69.38776257,-68.75977804,-68.10438969,-67.40570415,-66.66037298,-65.88003128,-65.08539406,-64.2945546,-63.51210485,-62.72784838,-61.92083973,-61.0715042,-60.17055947,-59.22070742,-58.23184699,-57.2127453,-56.1648945,-55.08342954,-53.96329146,-52.80668856,-51.62685146,-50.44546293,-49.28253847,-48.14838541,-47.04166137,-45.95167394,-44.86964567,-43.79687156,-42.74975647,-41.75405531,-40.83637971,-40.01088981,-39.27644979,-38.62070995,-38.03207624,-37.5148696,-37.09452916,-36.862248,-36.862248,-36.862248,-37.22234086,-37.77503981,-38.45900618,-39.20270343,-39.94105625,-40.62908154,-41.24612847,-41.7899516,-42.27093086,-42.70454336,-43.10968426,-43.50873864,-43.93044038,-44.40764635,-44.9725092,-45.64709578,-46.43488104,-47.31852733,-48.26229723,-49.22593765,-50.17400185,-51.08927176,-51.97461598,-52.84828878,-53.73314006,-54.64383489,-55.58221797,-56.53616558,-57.48739249,-58.41968381,-59.32789382,-60.21719491,-61.09873086,-61.9806851,-62.85951633,-63.71873862,-64.53069115,-65.26458664,-65.89533782,-66.40956419,-66.80579449,-67.09265013,-67.28167148,-67.35920079,-67.35920079,-67.35920079,-67.25320838,-67.109275,-66.95558884,-66.82415471,-66.79709724,-66.79709724,-66.79709724,-66.91509262,-67.06109577,-67.2026172,-67.3135858,-67.36756644,-67.36756644,-67.36756644,-67.30592777,-67.21509781,-67.09867764,-66.9624745,-66.81862415,-66.68797911,-66.59477045,-66.59477045,-66.59477045,-66.59755971,-66.59755971,-66.59755971,-66.49265396,-66.32230726,-66.12569493,-65.95492504,-65.86001577,-65.86001577,-65.86001577,-65.87998224,-65.87998224,-65.87998224,-65.79588033,-65.70255934,-65.69963322,-65.69963322,-65.69963322,-65.8013935,-65.91899308,-66.03586406,-66.1514752,-66.27752738,-66.42003832,-66.5663234,-66.59278844,-66.59278844,-66.59278844,-66.3210194,-65.90020509,-65.37328775,-64.79859217,-64.22741748,-63.69046611,-63.19127131,-62.71276745,-62.23126862,-61.72547816,-61.18426011,-60.60156819,-59.97364361,-59.29229444,-58.54444103,-57.71364432,-56.7895868,-55.77624824,-54.70035802,-53.61668,-52.60779169,-51.77740745,-51.32663091,-51.32663091,-51.32663091,-52.02351666,-53.11180957,-54.51199915,-56.12443648,-57.85104573,-59.60540154,-61.31675166,-62.93019112,-64.40731936,-65.72576968,-66.88262718,-67.89399003,-68.78975985,-69.60432035,-70.36347307,-71.07654125,-71.73790373,-72.33417029,-72.85614514,-73.30673862,-73.69915868,-74.05178617,-74.38080645,-74.69714068,-75.00982877,-75.32987197,-75.66953788,-76.03796249,-76.42846378,-76.8125573,-77.14823373,-77.39779844,-77.55230896,-77.6450911,-77.74435935,-77.92692864,-78.24542882,-78.70599879,-79.27233124,-79.88857496,-80.50058116,-81.05170492,-81.05170492,-81.05170492,-80.60597662,-78.36250918,-73.96236338,-66.71496863,-56.18157185,-42.36308749,-25.80595113,-7.58569517,10.82124639,27.7485569,41.57205713,50.92739224,50.92739224,50.92739224,45.56359445,33.28119474,17.46697685,-0.241909051,-18.08767627,-34.45517325,-48.1111801,-58.36917382,-65.13199113,-68.81212473,-69.27805004,-69.27805004,-69.27805004,-68.47730772,-68.47730772,-68.47730772,-68.49406239,-69.27866201,-70.21555665,-71.15007041,-71.97074079,-72.62012741,-73.08950424,-73.40541252,-73.60677897,-73.72881514,-73.73706842,-73.73706842,-73.73706842,-73.61970672,-73.45226523,-73.25228025,-73.03878194,-72.81955091,-72.58564377,-72.31258944,-71.96977605,-71.53077741,-70.98530039,-70.346298,-69.64370204,-68.91978342,-68.21359978,-67.55305293,-66.94968436,-66.39885818,-65.88820458,-65.40651794,-64.9464603,-64.5042392,-64.07316099,-63.63470214,-63.15884593,-62.60781616,-61.95332663,-61.19310778,-60.35683561,-59.499838,-58.68426992,-57.95221388,-57.30970437,-56.72343354,-56.13541123,-55.48926347,-54.75055024,-53.91213155,-52.98705963,-51.98914067,-50.92014631,-49.76845794,-48.52207944,-47.18800846,-45.80271219,-44.42575098,-43.11918567,-41.92437486,-40.84844979,-39.87309743,-38.97721494,-38.16155896,-37.46094527,-36.92956534,-36.62824144,-36.62824144,-36.62824144,-36.84060476,-37.08531572,-37.31381483,-37.52553283,-37.75938382,-38.06302048,-38.46152474,-38.94155837,-39.46142591,-39.98317202,-40.50100745,-41.05130168,-41.69424891,-42.47554285,-43.38859333,-44.36018053,-45.27120463,-46.00168801,-46.47930114,-46.70807443,-46.74656585,-46.76132473,-46.76162806,-46.86568452,-47.07893779,-47.40483296,-47.86016613,-48.48878283,-49.34870678,-50.47890588,-51.86436867,-53.42194561,-55.01870302,-56.51648364,-57.82043933,-58.91079877,-59.83858523,-60.68954903,-61.53713041,-62.40397446,-63.25577977,-64.02124017,-64.6291544,-65.04135753,-65.26510447,-65.26510447,-65.26510447,-65.26312886,-65.17825339,-65.09239592,-65.09239592,-65.09239592,-65.15618875,-65.43016938,-65.86214526,-66.40778706,-66.98140155,-67.48205905,-67.82484364,-67.82484364,-67.82484364,-67.73827873,-67.47828818,-67.19736047,-66.92657247,-66.67635339,-66.4491713,-66.25434894,-66.11429503,-66.11429503,-66.11429503,-66.22854568,-66.40591769,-66.56512289,-66.56512289,-66.56512289,-66.42083676,-66.17242409,-65.91048273,-65.69148901,-65.53686452,-65.42678841,-65.31115833,-65.13904,-64.8872032,-64.57629303,-64.26470829,-64.02507022,-64.02507022,-64.02507022,-64.06896488,-64.24428801,-64.39418697,-64.39418697,-64.39418697,-64.26653742,-63.98406283,-63.56859918,-63.00829041,-62.30039761,-61.46710891,-60.56170455,-59.65978384,-58.83684925,-58.13707905,-57.55264466,-57.01735779,-56.42572107,-55.66516156,-54.653985,-53.36927493,-51.86494838,-50.26707818,-48.7530264,-47.52197927,-47.06237126,-47.06237126,-47.06237126,-48.16627752,-49.79599386,-51.80364842,-54.01896467,-56.27666399,-58.4342235,-60.38359167,-62.05800327,-63.43761908,-64.55018201,-65.46583291,-66.28541222,-67.11329535,-68.02948841,-69.06393665,-70.19150921,-71.3423615,-72.4316594,-73.38625748,-74.16515436,-74.75889943,-75.1762682,-75.4296533,-75.4296533,-75.4296533,-75.32828438,-75.1057612,-74.88119816,-74.71372955,-74.71372955,-74.71372955,-74.75834723,-74.92369394,-75.16716724,-75.52785004,-76.05054513,-76.75184996,-77.59361812,-78.48195783,-79.28782482,-79.81847667,-79.81847667,-79.81847667,-78.73666878,-76.44822417,-72.38079959,-65.89094432,-56.43347758,-43.77256298,-28.16554784,-10.44890861,8.014489885,25.5164606,40.26989806,50.68954931,50.68954931,50.68954931,47.33398509,34.83168851,18.16522092,-1.083240943,-21.11676668,-40.13917197,-56.5944631,-69.38069996,-77.99585593,-82.57115621,-82.57115621,-82.57115621,-80.2178806,-77.52257572,-75.21271669,-73.62374165,-72.82807329,-72.82807329,-72.82807329,-73.28742399,-73.84668986,-74.41794934,-74.9385236,-75.35417281,-75.62443088,-75.70306332,-75.72655575,-75.7394886,-75.7394886,-75.87934264,-76.1692254,-76.53459006,-76.86693488,-76.86693488,-76.86693488,-76.84200962,-76.51178253,-76.15047486,-75.8338775,-75.5898229,-75.39636844,-75.20262516,-74.95845542,-74.62976639,-74.19722668,-73.63982958,-72.92081822,-71.99026157,-70.80737992,-69.37404858,-67.75899914,-66.09331499,-64.5347544,-63.21649767,-62.20016546,-61.45886192,-60.896652,-60.39343134,-59.8542841,-59.24275815,-58.57907126,-57.91403729,-57.29070544,-56.71670274,-56.15804107,-55.55479896,-54.84877412,-54.00761629,-53.0356496,-51.96828097,-50.85772402,-49.75745342,-48.71423117,-47.76443896,-46.93586217,-46.24727526,-45.70769952,-45.31193618,-45.03846425,-44.84991546,-44.69748369,-44.52813657,-44.29632599,-43.97439431,-43.56488932,-43.10704315,-42.67428706,-42.38168862,-42.38168862,-42.38168862,-42.75422967,-43.28784658,-43.86855925,-44.38482024,-44.77086962,-45.03224061,-45.23916061,-45.49222781,-45.87449141,-46.41517565,-47.08277849,-47.8081815,-48.52454698,-49.20380911,-49.86325429,-50.5445254,-51.27425616,-52.03432738,-52.75995817,-53.36994204,-53.81242145,-54.10188432,-54.32161758,-54.58774842,-54.99464679,-55.56599678,-56.24603298,-56.93093256,-57.52714225,-58.0030506,-58.40931389,-58.84945556,-59.42518592,-60.18158851,-61.08150021,-62.02903587,-62.9169907,-63.68324765,-64.3318112,-64.91892238,-65.50393283,-66.10372508,-66.67057125,-67.11163711,-67.12245953,-67.12245953,-67.12245953,-66.84674835,-66.65591209,-66.65591209,-66.65591209,-66.83601804,-66.9792065,-66.9792065,-66.9792065,-66.7924819,-66.56915042,-66.3780904,-66.25417491,-66.18635787,-66.13593528,-66.06739653,-65.97520729,-65.93287057,-65.93287057,-65.93287057,-66.10769907,-66.34401143,-66.56425405,-66.56425405,-66.56425405,-66.46720801,-66.16035158,-65.81044818,-65.49602612,-65.27309679,-65.17030542,-65.17030542,-65.17030542,-65.17030542,-65.17030542,-65.11454157,-64.95344769,-64.69610429,-64.32573922,-63.82260645,-63.17048706,-62.3691619,-61.4440671,-60.44846967,-59.45363409,-58.52892739,-57.7209813,-57.03903877,-56.45286809,-55.90497131,-55.33115535,-54.68211501,-53.93642616,-53.10314693,-52.2130739,-51.31174033,-50.45163021,-49.69108298,-49.09545282,-49.00078048,-49.00078048,-49.00078048,-49.71459552,-50.81800622,-52.26074843,-53.95596872,-55.79679006,-57.67262132,-59.48807912,-61.17419587,-62.69396598,-64.03947551,-65.22538643,-66.28052042,-67.23957166,-68.13438925,-68.99110835,-69.82858746,-70.65861494,-71.48424401,-72.29808572,-73.07998765,-73.79604364,-74.40587156,-74.87257283,-75.178185,-75.31624019,-75.31624019,-75.31624019,-75.22879943,-75.11587066,-74.97423644,-74.79589947,-74.58735688,-74.38275512,-74.33839069,-74.33839069,-74.33839069,-74.60936078,-74.9865617,-75.41913343,-75.8587874,-76.24718262,-76.24718262,-76.24718262,-75.18935805,-72.6243504,-67.84089996,-60.19180449,-49.31724945,-35.32169972,-18.85897047,-1.094410733,16.44628059,32.10063919,44.30415548,49.94165733,49.94165733,49.94165733,40.65547315,26.79324374,9.730756337,-8.830239722,-27.09442592,-43.44092633,-56.67029217,-66.16861257,-71.94062044,-73.55495597,-73.55495597,-73.55495597,-71.81091706,-70.11977176,-68.833478,-68.07281962,-68.07281962,-68.07281962,-68.14687036,-68.46883721,-68.73609572,-68.89591985,-68.92660613,-68.93877777,-68.94937017,-68.97324026,-69.11560973,-69.36104714,-69.68900464,-70.06365124,-70.44199766,-70.77922395,-71.02993291,-71.02993291,-71.02993291,-70.83818348,-70.39951635,-69.82003875,-69.17243534,-68.53304022,-67.95335955,-67.44017808,-66.95159367,-66.41429188,-65.75242536,-64.91502105,-63.8953779,-62.72857449,-61.47790574,-60.21335508,-58.99802096,-57.88185333,-56.90415038,-56.09949805,-55.49698856,-55.1131992,-54.97189704,-54.97189704,-54.93726666,-54.91967396,-54.83965606,-54.46905942,-53.84396755,-52.99216824,-51.98058181,-50.88913982,-49.78417154,-48.70636661,-47.66776398,-46.66213502,-45.67779306,-44.70707951,-43.7483581,-42.8039695,-41.87406487,-40.96035825,-40.07203494,-39.23254091,-38.48141254,-37.86799455,-37.43482422,-37.28892311,-37.28892311,-37.28892311,-37.54147614,-37.89645733,-38.34986304,-38.91146351,-39.58948936,-40.36902263,-41.20440642,-42.02511185,-42.75753309,-43.3497377,-43.78704642,-44.09478018,-44.31961296,-44.5105419,-44.69911903,-44.89756661,-45.10516921,-45.32413098,-45.56621227,-45.85331128,-46.2038471,-46.61614693,-47.06046546,-47.48281562,-47.82405611,-48.04133381,-48.10233701,-48.12672269,-48.12985714,-48.13723667,-48.29940993,-48.62735502,-49.12629874,-49.77717629,-50.55135301,-51.42462282,-52.38131956,-53.41023296,-54.49301991,-55.59344827,-56.65554702,-57.6126503,-58.40698472,-59.01054439,-59.4360979,-59.73623627,-59.98383964,-60.24258828,-60.54274394,-60.86947676,-61.16938106,-61.32103038,-61.32103038,-61.32103038,-61.05830845,-60.68535567,-60.24628341,-59.77176798,-59.2727184,-58.75049289,-58.2126862,-57.68685949,-57.21993783,-56.86387098,-56.6546689,-56.6546689,-56.6546689,-56.75244809,-56.85271717,-56.91179678,-56.92882801,-56.92980886,-56.94845582,-57.00537478,-57.09675988,-57.19590923,-57.27252345,-57.30248144,-57.30822936,-57.30922183,-57.318515,-57.37236471,-57.44210748,-57.44210748,-57.44210748,-57.22366642,-56.79184871,-56.13484288,-55.27528811,-54.26139339,-53.15378488,-52.0096726,-50.87299585,-49.77023426,-48.70967114,-47.68533207,-46.68424515,-45.69476698,-44.71470491,-43.75610193,-42.84399521,-42.01093656,-41.29220772,-40.72107081,-40.33068744,-40.33068744,-40.33068744,-40.64589333,-41.38191003,-42.46053368,-43.83990393,-45.43306973,-47.12307881,-48.79132222,-50.35045512,-51.76407331,-53.04841742,-54.25215893,-55.42799048,-56.60209142,-57.76747022,-58.89377105,-59.95086601,-60.9319348,-61.86153779,-62.78497223,-63.74147608,-64.74009506,-65.74490686,-66.68653455,-67.4898142,-68.1048699,-68.52785566,-68.80101438,-68.98904158,-69.14654754,-69.29601328,-69.42301029,-69.4737079,-69.4737079,-69.49775474,-69.50614479,-69.57597651,-69.86079038,-70.33161736,-70.9369862,-71.58892271,-72.20850248,-72.75983758,-73.24902523,-73.66971646,-73.66971646,-73.66971646,-72.48437774,-69.61151595,-64.36272808,-56.19611727,-44.92839703,-30.85918829,-14.78878421,2.070885286,18.26519284,32.29780524,42.82466243,45.2905039,45.2905039,45.2905039,36.12839833,23.13419118,7.662940712,-8.710489669,-24.4286328,-38.19513795,-49.16479217,-57.02975135,-61.97963231,-64.56184344,-65.03490199,-65.03490199,-65.03490199,-64.58029716,-64.36347771,-64.36347771,-64.36347771,-64.64425442,-64.98534577,-65.30785659,-65.55463404,-65.70630371,-65.78941773,-65.86409661,-65.99865514,-66.23567386,-66.56943253,-66.94234061,-67.26761238,-67.3024185,-67.3024185,-67.3024185,-66.97865327,-66.55208246,-66.06283951,-65.53144943,-64.96412264,-64.36795083,-63.76386745,-63.18987338,-62.68870127,-62.28703781,-61.9778997,-61.71497638,-61.42517134,-61.03300363,-60.48693692,-59.77428194,-58.92298148,-57.98578251,-57.01929816,-56.0667481,-55.15044103,-54.27642452,-53.44670793,-52.6689599,-51.95815942,-51.32813932,-50.77910071,-50.28764469,-49.80542587,-49.27095129,-48.62893955,-47.84996324,-46.94318667,-45.95208563,-44.9400368,-43.96941832,-43.08045282,-42.28237226,-41.55755417,-40.87494097,-40.20743233,-39.54251884,-38.88369477,-38.24378864,-37.63499974,-37.06061143,-36.51534887,-35.99362228,-35.50062146,-35.05874023,-34.70492532,-34.49219815,-34.49219815,-34.49219815,-34.69304268,-34.95861767,-35.23784116,-35.50420105,-35.76451389,-36.05226341,-36.40656544,-36.84484587,-37.34904458,-37.86851479,-38.34439808,-38.73764556,-39.04975461,-39.32176678,-39.61338119,-39.96929925,-40.39525434,-40.85467398,-41.29015147,-41.65776913,-41.9538972,-42.22277788,-42.53497118,-42.95082784,-43.48869288,-44.11680803,-44.77126191,-45.39324172,-45.96248642,-46.50840426,-47.09373475,-47.77437218,-48.56378126,-49.41647524,-50.24416509,-50.95291566,-51.48455647,-51.8403473,-52.07294318,-52.25660183,-52.44633339,-52.65526346,-52.85453849,-52.99950647,-53.03126773,-53.05577249,-53.05645603,-53.05645603,-53.18303862,-53.41897965,-53.72594981,-54.03300561,-54.26771049,-54.26771049,-54.26771049,-54.24035239,-54.04110841,-53.80181625,-53.54145893,-53.26752135,-52.98548952,-52.71095373,-52.46993297,-52.29344175,-52.25212393,-52.25212393,-52.25212393,-52.29570947,-52.29570947,-52.29570947,-52.16840208,-51.98382644,-51.78418053,-51.61105114,-51.49119515,-51.42581183,-51.39352186,-51.3614108,-51.29816225,-51.183381,-51.00877841,-50.77379276,-50.47586636,-50.10791586,-49.65597563,-49.10973797,-48.46863696,-47.74588917,-46.96655199,-46.15726251,-45.33615927,-44.50608474,-43.65824018,-42.77952397,-41.86689832,-40.92911465,-39.98740821,-39.06461185,-38.17442257,-37.31710337,-36.48751364,-35.69146895,-34.96238076,-34.36773413,-34.27930098,-34.27930098,-34.27930098,-35.00876983,-36.10166212,-37.48572108,-39.07243967,-40.77815767,-42.53290386,-44.28000101,-45.96946088,-47.55619571,-49.00508528,-50.3006822,-51.45576608,-52.51309126,-53.53122954,-54.56362201,-55.63971227,-56.75423227,-57.87224211,-58.94317314,-59.9187353,-60.76319116,-61.45884619,-62.00020989,-62.39294164,-62.6514025,-62.79729589,-62.84892419,-62.84892419,-62.84892419,-62.8057926,-62.73914101,-62.64932801,-62.55477427,-62.55477427,-62.55477427,-62.75892705,-63.17555193,-63.797505,-64.59358598,-65.5186294,-66.52072955,-67.5243136,-68.19274786,-68.19274786,-68.19274786,-65.96772517,-61.32600072,-53.61585001,-42.51491778,-28.20458122,-11.43967838,6.518372525,24.08067545,39.57604038,51.49247311,56.61632082,56.61632082,56.61632082,47.64591991,34.43817833,18.34555356,0.995864933,-15.9287488,-30.94798909,-43.01505989,-51.66020322,-57.00138452,-59.61835163,-59.61835163,-59.61835163,-59.25621224,-58.56470733,-58.12016296,-58.12016296,-58.12016296,-58.45849919,-59.00484756,-59.67830821,-60.39778958,-61.07036692,-61.61598769,-61.99381112,-62.21084158,-62.30898924,-62.30898924,-62.30898924,-62.22261274,-62.04601718,-61.76297165,-61.39021479,-60.98197696,-60.60669979,-60.31520174,-60.11118029,-59.94875733,-59.75580998,-59.46894803,-59.06648217,-58.57477275,-58.05267251,-57.55468486,-57.10199719,-56.6686668,-56.19905104,-55.63735727,-54.95774913,-54.17858642,-53.34975737,-52.52742559,-51.74602737,-51.00602028,-50.28298289,-49.55118702,-48.80431408,-48.06465286,-47.36931556,-46.74588605,-46.19154279,-45.66709161,-45.10963828,-44.46047842,-43.68887779,-42.80177966,-41.83533732,-40.83203848,-39.8192202,-38.80175534,-37.76678393,-36.70271831,-35.61575175,-34.53528651,-33.50553916,-32.56741222,-31.74366471,-31.03420496,-30.42568088,-29.90347562,-29.464139,-29.11570947,-28.86996074,-28.75336105,-28.75336105,-28.75336105,-28.88930338,-29.10920164,-29.43091059,-29.87619585,-30.4572004,-31.16341849,-31.95989981,-32.79463232,-33.61419224,-34.37754576,-35.06006102,-35.65187988,-36.15017858,-36.55665008,-36.87853015,-37.13582509,-37.36541371,-37.6167582,-37.94055098,-38.36755562,-38.89675996,-39.49381401,-40.10370001,-40.67557705,-41.18267208,-41.63380483,-42.06680101,-42.53195757,-43.06943305,-43.69730673,-44.41066512,-45.19022733,-46.01688958,-46.87866657,-47.7710825,-48.68711877,-49.60961474,-50.506837,-51.33871885,-52.06926009,-52.68056582,-53.17936517,-53.59352184,-53.96108533,-54.31479046,-54.67153321,-55.02791093,-55.36607691,-55.66192524,-55.89569881,-56.05591789,-56.11633289,-56.11633289,-56.11633289,-56.022362,-55.88507618,-55.71246335,-55.51200944,-55.29341033,-55.06586068,-54.83759233,-54.61414759,-54.39726131,-54.18525917,-53.97407015,-53.76114998,-53.54834678,-53.34581536,-53.17081596,-53.04508559,-53.04508559,-53.04508559,-53.09144284,-53.21887123,-53.35010001,-53.38650643,-53.38650643,-53.38650643,-53.19524226,-52.88469414,-52.45268655,-51.90059544,-51.23577015,-50.47690862,-49.65559625,-48.81179897,-47.98586363,-47.20427294,-46.47389148,-45.77973155,-45.09449064,-44.39158362,-43.65591502,-42.88508254,-42.08576602,-41.26344417,-40.41780175,-39.54821834,-38.66550133,-37.80851646,-37.05000158,-36.48891599,-36.48891599,-36.48891599,-36.82985867,-37.69540272,-38.86455328,-40.26189889,-41.82250454,-43.49718586,-45.24580854,-47.02176291,-48.76532937,-50.4091176,-51.89859445,-53.2087648,-54.35844675,-55.40061648,-56.39923763,-57.4028346,-58.42727624,-59.4566036,-60.45914064,-61.40773242,-62.28935945,-63.10357731,-63.84771786,-64.507842,-65.05734523,-65.46943364,-65.73487888,-65.87203619,-65.92303445,-65.93552096,-65.94332301,-65.95854728,-65.9780436,-66.00206153,-66.0494769,-66.15983041,-66.37771594,-66.73167801,-67.21803457,-67.8015201,-68.42631584,-69.01576955,-69.01576955,-69.01576955,-68.83735982,-66.86574018,-62.90391182,-56.24117826,-46.34290963,-33.05148734,-16.73061725,1.697721143,20.84274972,39.03169067,54.54824162,65.866791,65.866791,65.866791,65.84614693,54.41096148,38.67886652,20.22613993,0.865529881,-17.6116635,-33.70464142,-46.41918835,-55.37096497,-60.75591634,-62.75676933,-62.75676933,-62.75676933,-61.46754218,-60.23896388,-59.37464355,-59.37464355,-59.37464355,-59.55400973,-60.24950207,-61.01628219,-61.71770229,-62.26235343,-62.61883924,-62.80849819,-62.87150362,-62.87150362,-62.87150362,-62.82109131,-62.73094843,-62.59108513,-62.40583948,-62.19315415,-61.97233581,-61.75075238,-61.51580821,-61.24126146,-60.90155002,-60.48662276,-60.00873646,-59.49431151,-58.9700271,-58.4471629,-57.91646712,-57.35461021,-56.73795073,-56.05932747,-55.33106455,-54.58322234,-53.84801107,-53.1492796,-52.49251733,-51.86781057,-51.25661396,-50.63933889,-50.00426126,-49.3423745,-48.64820415,-47.91274259,-47.12450602,-46.27498595,-45.36455635,-44.40680065,-43.42800576,-42.4595019,-41.52557198,-40.63544706,-39.77581001,-38.91534241,-38.01455272,-37.03826687,-35.96963447,-34.81657196,-33.61082977,-32.39968586,-31.23274913,-30.14855186,-29.16806977,-28.29500465,-27.52142379,-26.83823404,-26.24283053,-25.74425612,-25.35966997,-25.10885537,-25.10885537,-25.10885537,-25.25426118,-25.58585023,-26.03914001,-26.60425201,-27.27309263,-28.03368644,-28.86292478,-29.72424327,-30.56990437,-31.35314823,-32.04110379,-32.62492919,-33.12107841,-33.5631784,-33.98745914,-34.41898308,-34.86715134,-35.32866457,-35.79964329,-36.28662533,-36.81256787,-37.41095061,-38.11384023,-38.9378606,-39.87654019,-40.9019312,-41.97577467,-43.06205269,-44.13730804,-45.19330658,-46.22945754,-47.24755836,-48.24320208,-49.20631635,-50.12640562,-50.99831358,-51.82447303,-52.61355161,-53.37304504,-54.10240639,-54.78915065,-55.41172557,-55.94702428,-56.37858675,-56.70119661,-56.92187494,-57.05597525,-57.096916,-57.096916,-57.096916,-57.02553294,-56.92230972,-56.7933473,-56.64600192,-56.48804849,-56.32575662,-56.16363819,-56.00341109,-55.84514991,-55.68966594,-55.53823981,-55.39535436,-55.2664104,-55.15724098,-55.07065635,-55.00306647,-54.94407396,-54.87739325,-54.78758611,-54.66252358,-54.4999823,-54.30375679,-54.07793188,-53.81729724,-53.50071082,-53.09377267,-52.55897556,-51.87330158,-51.04066762,-50.10023596,-49.11474482,-48.15122913,-47.25896804,-46.45224291,-45.71182634,-44.99896852,-44.27701379,-43.52888874,-42.76122629,-41.99414763,-41.2443295,-40.51154549,-39.77843616,-39.02760875,-38.26392124,-37.53217832,-36.91744785,-36.75911492,-36.75911492,-36.75911492,-37.45121551,-38.49494489,-39.83089756,-41.39624481,-43.1343731,-44.99238084,-46.91040504,-48.81699558,-50.63510028,-52.29849768,-53.77257605,-55.06460168,-56.22002728,-57.30083182,-58.36140063,-59.42921822,-60.50423981,-61.5668927,-62.59219656,-63.55971229,-64.45015764,-65.24194242,-65.90700415,-66.4188191,-66.76898414,-66.98075881,-67.10970292,-67.22669823,-67.39006352,-67.61951651,-67.89243695,-68.16037836,-68.38278646,-68.55617054,-68.72059018,-68.94379247,-69.28864171,-69.78865959,-70.43899592,-71.20381192,-72.02296205,-72.79267905,-72.79267905,-72.79267905,-72.05603552,-69.02256205,-63.39562478,-54.55271686,-42.21297352,-26.60003527,-8.502491166,10.78665903,29.63981618,46.32343352,59.23260286,65.1127557,65.1127557,65.1127557,55.47331968,41.20676396,23.79268962,4.997712333,-13.38130218,-29.7898248,-43.1409392,-52.93720628,-59.26042769,-62.64426305,-63.10878352,-63.10878352,-63.10878352,-62.37020367,-62.14254466,-62.14254466,-62.14254466,-62.77652946,-63.57824095,-64.3933746,-65.09071061,-65.58990156,-65.87363368,-65.92458511,-65.92458511,-65.92458511,-65.85601446,-65.77054893,-65.64565382,-65.4613571,-65.21804155,-64.94107199,-64.66819695,-64.42949573,-64.23212319,-64.05598936,-63.86202016,-63.60889216,-63.27041926,-62.84151506,-62.3372054,-61.7839602,-61.20933473,-60.63642422,-60.07949309,-59.54561212,-59.03369143,-58.53573455,-58.03425361,-57.50539656,-56.92364709,-56.26828941,-55.53066897,-54.71765746,-53.85023235,-52.95646987,-52.06163074,-51.1803917,-50.31351127,-49.45164156,-48.58085328,-47.69073443,-46.77788063,-45.84573061,-44.89965293,-43.94026043,-42.96045563,-41.9460476,-40.88406447,-39.76906767,-38.61123481,-37.436511,-36.2816416,-35.18246093,-34.164751,-33.23999989,-32.40880623,-31.6701092,-31.02834846,-30.49634722,-30.09089578,-29.82189992,-29.72781654,-29.72781654,-29.72781654,-29.86251544,-30.06579297,-30.35634893,-30.76301371,-31.30873055,-31.99202225,-32.78151175,-33.62086167,-34.44628407,-35.20540156,-35.87180494,-36.44700222,-36.95116553,-37.40922041,-37.84002236,-38.25443242,-38.66100035,-39.07398761,-39.51879811,-40.02807887,-40.63071471,-41.34129572,-42.15345701,-43.04337026,-43.98145895,-44.9444938,-45.92281953,-46.91914421,-47.93754651,-48.97359659,-50.00746343,-51.00698709,-51.93940402,-52.7849044,-53.5430007,-54.23261039,-54.88095789,-55.51079353,-56.12957198,-56.72788073,-57.28575491,-57.78327191,-58.20820456,-58.56086858,-58.84985693,-59.08574678,-59.27622408,-59.42331637,-59.52647062,-59.58770068,-59.61536715,-59.62547003,-59.63822912,-59.66983137,-59.7297776,-59.81578245,-59.91517115,-60.00864653,-60.07798104,-60.07798104,-60.07798104,-60.05176886,-59.97225432,-59.8717318,-59.75594997,-59.62606104,-59.4792192,-59.31359444,-59.1288525,-58.93111405,-58.73120224,-58.54128961,-58.37075457,-58.22263517,-58.09346613,-57.97389449,-57.85108629,-57.70784047,-57.52595263,-57.28295006,-56.95554355,-56.52343902,-55.97561909,-55.31466343,-54.55830016,-53.73370844,-52.86915618,-51.98662127,-51.09421019,-50.19046938,-49.26897611,-48.32540823,-47.36083712,-46.38053353,-45.38921442,-44.38981997,-43.39026586,-42.41141909,-41.50060829,-40.73397098,-40.22523552,-40.22523552,-40.22523552,-40.84971519,-41.85554822,-43.17318338,-44.7164321,-46.40572351,-48.17544016,-49.96902717,-51.72874248,-53.3935951,-54.90711521,-56.23434483,-57.3804515,-58.39087261,-59.33914415,-60.29511277,-61.29808128,-62.34212612,-63.38621788,-64.37811532,-65.27912829,-66.07774254,-66.78233147,-67.40319837,-67.93681351,-68.36692766,-68.67921564,-68.88292433,-69.01895832,-69.14843812,-69.325995,-69.56928146,-69.85012027,-70.11169945,-70.30523122,-70.42760084,-70.53312192,-70.71360968,-71.06060208,-71.62554592,-72.40403268,-73.34850646,-74.38504182,-75.41615015,-76.18627201,-76.18627201,-76.18627201,-74.07534228,-69.58801223,-62.01471257,-50.93303674,-36.40137003,-19.05718133,-0.081421627,18.95732838,36.333818,50.41070668,59.84992649,59.84992649,59.84992649,54.22464165,41.82578392,25.91920639,8.150897292,-9.722820571,-26.10120615,-39.78492139,-50.1347036,-57.1020717,-61.12974288,-62.95872643,-62.95872643,-62.95872643,-62.89352495,-62.89352495,-62.89352495,-63.31984249,-63.93704458,-64.63025226,-65.28920809,-65.83391883,-66.23373117,-66.50903785,-66.71842105,-66.92705907,-67.17390511,-67.44861875,-67.69520871,-67.69520871,-67.69520871,-67.6162841,-67.27148478,-66.84497005,-66.39668098,-65.95981598,-65.53311488,-65.09659924,-64.63415035,-64.15059965,-63.6727624,-63.23073374,-62.83956718,-62.48461196,-62.12719107,-61.7225391,-61.24240657,-60.68633931,-60.07687657,-59.44235541,-58.79509632,-58.12368763,-57.39924533,-56.59364283,-55.69941958,-54.73770954,-53.75239156,-52.79000603,-51.88198675,-51.03193931,-50.22125754,-49.42237549,-48.61106229,-47.77483182,-46.91009025,-46.01521435,-45.08169226,-44.09848348,-43.05814818,-41.96923982,-40.85948941,-39.77172273,-38.74936469,-37.82127651,-36.99074073,-36.23793554,-35.53381659,-34.85429508,-34.19286232,-33.56137744,-32.98183712,-32.47359267,-32.04549572,-31.69730079,-31.42786444,-31.24552425,-31.24552425,-31.24552425,-31.46794146,-31.87299326,-32.4355194,-33.11499618,-33.86082256,-34.62666547,-35.38240668,-36.11555341,-36.82518981,-37.50871861,-38.155955,-38.74619033,-39.25633767,-39.67374573,-40.00668388,-40.28540141,-40.55726051,-40.87176837,-41.26673263,-41.75990208,-42.34624948,-43.00794183,-43.7248816,-44.48542497,-45.28841755,-46.14103807,-47.04883423,-48.00730838,-48.99772333,-49.98997849,-50.95227601,-51.86062627,-52.70542431,-53.49136826,-54.23143956,-54.93684561,-55.61012095,-56.24279181,-56.81996283,-57.32841804,-57.76179973,-58.12501145,-58.42938115,-58.68650613,-58.90124406,-59.07021063,-59.18289559,-59.18289559,-59.18289559,-59.12706756,-59.00190668,-58.851675,-58.68986544,-58.52036309,-58.33757023,-58.13150818,-57.89626606,-57.63505776,-57.3619137,-57.09962304,-56.87191588,-56.69665112,-56.58008486,-56.51609331,-56.48984966,-56.48328356,-56.48149292,-56.47606007,-56.4668474,-56.4668474,-56.4668474,-56.48973234,-56.54170028,-56.62367252,-56.73335378,-56.8621846,-56.99373936,-57.10280199,-57.10280199,-57.10280199,-56.96745015,-56.65916547,-56.18461054,-55.54219678,-54.74551242,-53.82147053,-52.80628999,-51.74324885,-50.67614736,-49.64706945,-48.69049315,-47.83051628,-47.07594506,-46.42188431,-45.84966486,-45.32966414,-44.82690166,-44.30668308,-43.74122807,-43.1174988,-42.44386505,-41.75678822,-41.12160408,-40.62453122,-40.62453122,-40.62453122,-40.81314249,-41.60193322,-42.74667699,-44.19402724,-45.87054757,-47.69261334,-49.5738495,-51.42869614,-53.18117695,-54.77323241,-56.17492,-57.38851278,-58.44494057,-59.38888752,-60.26254928,-61.09103735,-61.87784168,-62.61609956,-63.3017492,-63.94361992,-64.56321518,-65.18157108,-65.80335192,-66.40989243,-66.96616387,-67.43859739,-67.81747418,-68.12387033,-68.39816969,-68.67875173,-68.97796267,-69.27608579,-69.53724792,-69.7377076,-69.88978173,-70.0463107,-70.28033751,-70.65249241,-71.18759139,-71.86880203,-72.6525325,-73.4800344,-74.26285457,-74.26285457,-74.26285457,-73.84445661,-71.05909165,-65.7321865,-57.20908355,-45.18449456,-29.88097986,-12.1186933,6.755777205,25.06238189,41.04584487,53.1355728,56.96105976,56.96105976,56.96105976,47.21456102,33.26308337,16.56984878,-1.173430629,-18.28073459,-33.31864749,-45.31551915,-53.8762718,-59.17229435,-61.81040646,-62.02842061,-62.02842061,-62.02842061,-62.02842061,-62.02842061,-62.25838481,-62.9494342,-63.7495488,-64.52516216,-65.18074746,-65.66674461,-65.97596166,-66.13320184,-66.13320184,-66.13320184,-66.12189917,-66.07693212,-66.05464302,-66.05464302,-66.05464302,-66.11158561,-66.19979299,-66.29561276,-66.29561276,-66.29561276,-66.19859201,-65.92009409,-65.51493346,-65.01471043,-64.45417916,-63.85648415,-63.22763916,-62.56441872,-61.86570341,-61.14315669,-60.42113118,-59.7245686,-59.06486843,-58.42980909,-57.78639308,-57.09810824,-56.34057839,-55.51265659,-54.63583288,-53.74160081,-52.85524963,-51.98804143,-51.13708132,-50.29601246,-49.46733962,-48.66345226,-47.90090656,-47.18606006,-46.5066713,-45.83138475,-45.12230252,-44.35142028,-43.51353671,-42.62705334,-41.72242993,-40.82663051,-39.95193755,-39.0982383,-38.26097625,-37.44517444,-36.67180905,-35.97264908,-35.37638044,-34.89438545,-34.51184225,-34.1954698,-33.91043999,-33.63867533,-33.39042732,-33.20085742,-33.20085742,-33.20085742,-33.36613999,-33.69944055,-34.13680691,-34.64750488,-35.21166535,-35.82073515,-36.47009744,-37.14797342,-37.82888214,-38.47588737,-39.05283626,-39.53648759,-39.92651975,-40.24600798,-40.53053878,-40.81557883,-41.12369623,-41.46027403,-41.81764798,-42.18573047,-42.56258869,-42.96193656,-43.41287929,-43.95183212,-44.61160757,-45.41028672,-46.34412014,-47.38744717,-48.49939719,-49.63268709,-50.74272642,-51.7954337,-52.76805641,-53.64734362,-54.42806201,-55.10870337,-55.69286504,-56.18928654,-56.61219638,-56.98112534,-57.31659559,-57.63504094,-57.94322249,-58.23864191,-58.510248,-58.74608366,-58.93671187,-59.07902904,-59.17628789,-59.23412286,-59.23412286,-59.23412286,-59.22038415,-59.16730825
